% Version 1.00
%
%freq[Hz] re:Trc4_S22 im:Trc4_S22 
1.000000000000000E+005,9.982217174653906E-001,-1.180082060845731E-002,
9.099800000000000E+006,8.784478473373051E-001,-4.690275633854599E-001,
1.809960000000000E+007,5.567668063881989E-001,-8.307301250646668E-001,
2.709940000000000E+007,1.036737536389866E-001,-9.900612319380283E-001,
3.609920000000000E+007,-3.707790809075353E-001,-9.160032006625515E-001,
4.509900000000000E+007,-7.557821151494829E-001,-6.310876632719890E-001,
5.409880000000000E+007,-9.598447912300685E-001,-1.991410607876863E-001,
6.309860000000000E+007,-9.365575384942169E-001,2.765926460787538E-001,
7.209840000000000E+007,-6.935818374073851E-001,6.819125309251386E-001,
8.109820000000000E+007,-2.912064530783682E-001,9.257577488102392E-001,
9.009800000000000E+007,1.764347782207617E-001,9.541039188972202E-001,
9.909780000000000E+007,6.016918657357568E-001,7.613551200690976E-001,
1.080976000000000E+008,8.876336708322563E-001,3.940825515088806E-001,
1.170974000000000E+008,9.699538515560501E-001,-6.429831214108431E-002,
1.260972000000000E+008,8.296722378760850E-001,-5.085238700833062E-001,
1.350970000000000E+008,4.981715925131359E-001,-8.360057832026735E-001,
1.440968000000000E+008,5.029032377725453E-002,-9.713194994427853E-001,
1.530966000000000E+008,-4.080904039439603E-001,-8.809581889674539E-001,
1.620964000000000E+008,-7.712239613565980E-001,-5.861117318531457E-001,
1.710962000000000E+008,-9.529676244327704E-001,-1.556094897399876E-001,
1.800960000000000E+008,-9.111095210822526E-001,3.098600299111173E-001,
1.890958000000000E+008,-6.574780902203923E-001,6.996753034255872E-001,
1.980956000000000E+008,-2.522188146186591E-001,9.250807465210296E-001,
2.070954000000000E+008,2.091494755896945E-001,9.354202063351891E-001,
2.160952000000000E+008,6.219962302457721E-001,7.301696939353863E-001,
2.250950000000000E+008,8.918921476794275E-001,3.570997310770225E-001,
2.340948000000000E+008,9.565681352827146E-001,-9.828748673663773E-002,
2.430946000000000E+008,8.025843145709142E-001,-5.319132656288521E-001,
2.520944000000000E+008,4.630205228797278E-001,-8.450399949089844E-001,
2.610942000000000E+008,1.556919477243116E-002,-9.620274324339790E-001,
2.700940000000000E+008,-4.346491090560975E-001,-8.568700505175861E-001,
2.790938000000000E+008,-7.832336060645218E-001,-5.520852812622211E-001,
2.880936000000000E+008,-9.479308926590350E-001,-1.204022795171129E-001,
2.970934000000000E+008,-8.909199797089236E-001,3.370067946874182E-001,
3.060932000000000E+008,-6.279812456140625E-001,7.137210805867124E-001,
3.150930000000000E+008,-2.214746371248335E-001,9.227584946793149E-001,
3.240928000000000E+008,2.340724644542926E-001,9.192529458839309E-001,
3.330926000000000E+008,6.344229333065435E-001,7.062952778250665E-001,
3.420924000000000E+008,8.919720910952501E-001,3.313342661622046E-001,
3.510922000000000E+008,9.457809251847577E-001,-1.201443280067487E-001,
3.600920000000000E+008,7.829825154862042E-001,-5.456757492451517E-001,
3.690918000000000E+008,4.395422099528664E-001,-8.481996019269019E-001,
3.780916000000000E+008,-7.164035123520476E-003,-9.544281296351264E-001,
3.870914000000000E+008,-4.524001792821028E-001,-8.384807284736351E-001,
3.960912000000000E+008,-7.901667974501121E-001,-5.261078551292557E-001,
4.050910000000000E+008,-9.409642975337303E-001,-9.315405122564902E-002,
4.140908000000000E+008,-8.719515992994881E-001,3.589166313479995E-001,
4.230906000000000E+008,-6.002187448368901E-001,7.236092304413899E-001,
4.320904000000000E+008,-1.926302243448073E-001,9.197149632787960E-001,
4.410902000000000E+008,2.580357898584301E-001,9.042725655041960E-001,
4.500900000000000E+008,6.490164421970386E-001,6.833597053685148E-001,
4.590898000000000E+008,8.934769121899067E-001,3.068596044772144E-001,
4.680896000000000E+008,9.363807526212803E-001,-1.398491471279418E-001,
4.770894000000000E+008,7.677703067205208E-001,-5.577527324554501E-001,
4.860892000000000E+008,4.227828154181784E-001,-8.501592165290545E-001,
4.950890000000000E+008,-2.104352434418613E-002,-9.481992490726160E-001,
5.040888000000000E+008,-4.595790227422361E-001,-8.253901167356100E-001,
5.130886000000000E+008,-7.902829398937542E-001,-5.117000407477359E-001,
5.220884000000000E+008,-9.337056683002316E-001,-7.913749190873792E-002,
5.310882000000000E+008,-8.566297506169438E-001,3.687222693490497E-001,
5.400880000000000E+008,-5.832344114659185E-001,7.263090652641607E-001,
5.490878000000000E+008,-1.769324099723290E-001,9.148299601303449E-001,
5.580876000000000E+008,2.701714094216629E-001,8.935277214684939E-001,
5.670874000000000E+008,6.551334656056261E-001,6.686943660663950E-001,
5.760872000000000E+008,8.929468305364521E-001,2.919776933843297E-001,
5.850870000000000E+008,9.306576258121616E-001,-1.524640221271583E-001,
5.940868000000000E+008,7.568479586154832E-001,-5.651009153383487E-001,
6.030866000000000E+008,4.103334085180878E-001,-8.510827556390809E-001,
6.120864000000000E+008,-3.090494802609975E-002,-9.416092484990639E-001,
6.210862000000000E+008,-4.645423733326970E-001,-8.160402070981754E-001,
6.300860000000000E+008,-7.887809347402671E-001,-5.015616402996909E-001,
6.390858000000000E+008,-9.273067692312182E-001,-7.285164395743725E-002,
6.480856000000000E+008,-8.494533069671305E-001,3.690842609446595E-001,
6.570854000000000E+008,-5.765476402759272E-001,7.228534348324958E-001,
6.660852000000000E+008,-1.706422051465201E-001,9.078174184881123E-001,
6.750850000000000E+008,2.710636890800606E-001,8.855379589492308E-001,
6.840848000000000E+008,6.514846687894091E-001,6.615670697742411E-001,
6.930846000000000E+008,8.873573756772403E-001,2.896638357852734E-001,
7.020844000000000E+008,9.240738841813526E-001,-1.495070232941242E-001,
7.110842000000000E+008,7.545546212066283E-001,-5.573933294302441E-001,
7.200840000000000E+008,4.145516736495307E-001,-8.418741507816142E-001,
7.290838000000000E+008,-2.130273347682342E-002,-9.362296095261491E-001,
7.380836000000000E+008,-4.514186343031801E-001,-8.164724258872194E-001,
7.470834000000000E+008,-7.763217730895033E-001,-5.088083147304484E-001,
7.560832000000000E+008,-9.197269570193567E-001,-8.466345730836532E-002,
7.650830000000000E+008,-8.477559295443452E-001,3.559574970444905E-001,
7.740828000000000E+008,-5.803408810292596E-001,7.105238183240502E-001,
7.830826000000000E+008,-1.800386258277849E-001,8.995248629731637E-001,
7.920824000000000E+008,2.599736821172407E-001,8.811270525826360E-001,
8.010822000000000E+008,6.402547629817971E-001,6.631707945124999E-001,
8.100820000000000E+008,8.763997365597134E-001,2.969360574635502E-001,
8.190818000000000E+008,9.193723028082759E-001,-1.380648029288614E-001,
8.280816000000000E+008,7.572703247635403E-001,-5.433761834493450E-001,
8.370814000000000E+008,4.243061737649623E-001,-8.294023941684786E-001,
8.460812000000000E+008,-3.630509839949482E-003,-9.295565243518068E-001,
8.550810000000000E+008,-4.304956694645060E-001,-8.208247899791039E-001,
8.640808000000000E+008,-7.597801938396094E-001,-5.233735779373888E-001,
8.730806000000000E+008,-9.116148959965729E-001,-1.065588104659765E-001,
8.820804000000000E+008,-8.516762587143594E-001,3.317067696747822E-001,
8.910802000000000E+008,-5.947977255672836E-001,6.915542965801513E-001,
9.000800000000000E+008,-2.023796099572246E-001,8.886800414417431E-001,
9.090798000000000E+008,2.342277573120956E-001,8.828524851897431E-001,
9.180796000000000E+008,6.164899742582241E-001,6.779253838894465E-001,
9.270794000000000E+008,8.623890085705450E-001,3.215120759484745E-001,
9.360792000000000E+008,9.177137487077128E-001,-1.067687793606509E-001,
9.450790000000000E+008,7.707827965284615E-001,-5.134496769445791E-001,
9.540788000000000E+008,4.520199390785307E-001,-8.094383051327931E-001,
9.630786000000000E+008,3.129526791981883E-002,-9.256304505987898E-001,
9.720784000000000E+008,-3.966283369476447E-001,-8.321623521661810E-001,
9.810782000000000E+008,-7.349301792809373E-001,-5.499343735858775E-001,
9.900780000000000E+008,-9.020556493141322E-001,-1.415350890626348E-001,
9.990778000000000E+008,-8.600203424238384E-001,2.968404740656852E-001,
1.008077600000000E+009,-6.177587297967133E-001,6.641300890409236E-001,
1.017077400000000E+009,-2.363762614586334E-001,8.754416392548997E-001,
1.026077200000000E+009,1.995204694995268E-001,8.859214968649077E-001,
1.035077000000000E+009,5.878880486354485E-001,6.959647682792577E-001,
1.044076800000000E+009,8.454899068262843E-001,3.505359890121734E-001,
1.053076600000000E+009,9.156263288893358E-001,-7.269776346652644E-002,
1.062076400000000E+009,7.850680875788637E-001,-4.833132549238949E-001,
1.071076200000000E+009,4.798374549530858E-001,-7.877407070067066E-001,
1.080076000000000E+009,6.807038409995096E-002,-9.194993645400108E-001,
1.089075800000000E+009,-3.613455722577311E-001,-8.440279455509204E-001,
1.098075600000000E+009,-7.075512232930611E-001,-5.786846885388074E-001,
1.107075400000000E+009,-8.903463503537545E-001,-1.823323848576773E-001,
1.116075200000000E+009,-8.677346105155365E-001,2.539793448563603E-001,
1.125075000000000E+009,-6.463145269483589E-001,6.286771210357380E-001,
1.134074800000000E+009,-2.780877131227506E-001,8.571410223908363E-001,
1.143074600000000E+009,1.511179257267067E-001,8.891790912269182E-001,
1.152074400000000E+009,5.452510502744887E-001,7.214183959626767E-001,
1.161074200000000E+009,8.185162219361283E-001,3.944003972390606E-001,
1.170074000000000E+009,9.121230889296467E-001,-2.189819818515217E-002,
1.179073800000000E+009,8.059329525139871E-001,-4.352145832309673E-001,
1.188073600000000E+009,5.219219001501759E-001,-7.546783914281255E-001,
1.197073400000000E+009,1.210048921467010E-001,-9.094816372883544E-001,
1.206073200000000E+009,-3.078120309432073E-001,-8.621641632612965E-001,
1.215073000000000E+009,-6.673866118550259E-001,-6.214071482583616E-001,
1.224072800000000E+009,-8.737235879191810E-001,-2.395125592165730E-001,
1.233072600000000E+009,-8.804008681683943E-001,1.927584852916890E-001,
1.242072400000000E+009,-6.855395667301271E-001,5.792949554181809E-001,
1.251072200000000E+009,-3.357976367854160E-001,8.307242979971830E-001,
1.260072000000000E+009,8.967907807968886E-002,8.909082527775176E-001,
1.269071800000000E+009,4.941439113314040E-001,7.498964330246317E-001,
1.278071600000000E+009,7.881422812740857E-001,4.388243880732891E-001,
1.287071400000000E+009,9.060115297374093E-001,2.825532008594759E-002,
1.296071200000000E+009,8.213265897906925E-001,-3.922719485918681E-001,
1.305071000000000E+009,5.525711779372153E-001,-7.270893106594839E-001,
1.314070800000000E+009,1.580719964821925E-001,-8.997228532139713E-001,
1.323070600000000E+009,-2.714734865480586E-001,-8.710473277542495E-001,
1.332070400000000E+009,-6.390440509660986E-001,-6.458311786998232E-001,
1.341070200000000E+009,-8.597169748216943E-001,-2.783550742419315E-001,
1.350070000000000E+009,-8.873919994848575E-001,1.481811643217813E-001,
1.359069800000000E+009,-7.150005017542918E-001,5.376273049610634E-001,
1.368069600000000E+009,-3.846639765797381E-001,8.046304107041038E-001,
1.377069400000000E+009,2.973099515120664E-002,8.916503068625094E-001,
1.386069200000000E+009,4.382775569739178E-001,7.793449578559202E-001,
1.395069000000000E+009,7.493432678460127E-001,4.935438490812280E-001,
1.404068800000000E+009,8.962597318106651E-001,9.359049716387191E-002,
1.413068600000000E+009,8.432399209914632E-001,-3.307709974827349E-001,
1.422068400000000E+009,5.990248767436397E-001,-6.825705820965012E-001,
1.431068200000000E+009,2.185837453720701E-001,-8.826360802227175E-001,
1.440068000000000E+009,-2.115102466419886E-001,-8.822759471690390E-001,
1.449067800000000E+009,-5.933808861569231E-001,-6.838936660625231E-001,
1.458067600000000E+009,-8.386267711411576E-001,-3.311447488628478E-001,
1.467067400000000E+009,-8.914022140698064E-001,9.410019606059845E-002,
1.476067200000000E+009,-7.441190554880209E-001,4.951563225080959E-001,
1.485067000000000E+009,-4.289242331214697E-001,7.807922982213360E-001,
1.494066800000000E+009,-1.995654294736040E-002,8.918490364234136E-001,
1.503066600000000E+009,3.946377168948081E-001,8.005948242727933E-001,
1.512066400000000E+009,7.199257972717946E-001,5.300308722403749E-001,
1.521066200000000E+009,8.860154561192563E-001,1.412090984012153E-001,
1.530066000000000E+009,8.552401147832328E-001,-2.801293252375900E-001,
1.539065800000000E+009,6.344722618227351E-001,-6.421911676604883E-001,
1.548065600000000E+009,2.709344764549808E-001,-8.620303380413110E-001,
1.557065400000000E+009,-1.537651153632670E-001,-8.902232265726474E-001,
1.566065200000000E+009,-5.444076190503735E-001,-7.201035219625679E-001,
1.575065000000000E+009,-8.118457444755254E-001,-3.881905462575630E-001,
1.584064800000000E+009,-8.965562988126219E-001,2.929408941233143E-002,
1.593064600000000E+009,-7.788657287612476E-001,4.384824152719515E-001,
1.602064400000000E+009,-4.877654772320546E-001,7.458163390020621E-001,
1.611064200000000E+009,-8.766926256428184E-002,8.852288405118295E-001,
1.620064000000000E+009,3.302788962686716E-001,8.263342137547516E-001,
1.629063800000000E+009,6.742436914914315E-001,5.808729122074666E-001,
1.638063600000000E+009,8.676543484421883E-001,2.061303083145527E-001,
1.647063400000000E+009,8.673581926601410E-001,-2.171694701581374E-001,
1.656063200000000E+009,6.723091410498072E-001,-5.931698508114518E-001,
1.665063000000000E+009,3.256043009754303E-001,-8.378330417654506E-001,
1.674062800000000E+009,-9.599601295335958E-002,-8.946198395978950E-001,
1.683062600000000E+009,-4.959231781960972E-001,-7.507777085390821E-001,
1.692062400000000E+009,-7.845830094339771E-001,-4.375726034453057E-001,
1.701062200000000E+009,-8.956692118707745E-001,-2.816567808065172E-002,
1.710062000000000E+009,-8.060600049804815E-001,3.848624852382916E-001,
1.719061800000000E+009,-5.377925749219639E-001,7.102490696391527E-001,
1.728061600000000E+009,-1.508780133929741E-001,8.748725085867005E-001,
1.737061400000000E+009,2.681511493438990E-001,8.451236571233181E-001,
1.746061200000000E+009,6.260105431481122E-001,6.273730464478668E-001,
1.755061000000000E+009,8.446768129000170E-001,2.692655493442606E-001,
1.764060800000000E+009,8.758269125282067E-001,-1.489292260762241E-001,
1.773060600000000E+009,7.121090716221361E-001,-5.370454682161472E-001,
1.782060400000000E+009,3.868296109961071E-001,-8.071664225361003E-001,
1.791060200000000E+009,-2.735109047799958E-002,-8.965274968009459E-001,
1.800060000000000E+009,-4.362896313266237E-001,-7.846908388096272E-001,
1.809059800000000E+009,-7.480815189320565E-001,-4.961072584611922E-001,
1.818059600000000E+009,-8.897513176863712E-001,-9.637613100530536E-002,
1.827059400000000E+009,-8.317076209049534E-001,3.224790780278221E-001,
1.836059200000000E+009,-5.885500012316428E-001,6.652573594874511E-001,
1.845059000000000E+009,-2.155920058342568E-001,8.584849982204029E-001,
1.854058800000000E+009,2.019163558599344E-001,8.594973225388704E-001,
1.863058600000000E+009,5.735569997120794E-001,6.699593958126083E-001,
1.872058400000000E+009,8.172764645935440E-001,3.314517095442812E-001,
1.881058200000000E+009,8.802897065181333E-001,-8.226753480484909E-002,
1.890058000000000E+009,7.472193780326629E-001,-4.793613515380993E-001,
1.899057800000000E+009,4.446898812925372E-001,-7.725043018157777E-001,
1.908057600000000E+009,3.957010386424138E-002,-8.939025534933210E-001,
1.917057400000000E+009,-3.764336185759376E-001,-8.136517132866245E-001,
1.926057200000000E+009,-7.090234360626195E-001,-5.498665795020886E-001,
1.935057000000000E+009,-8.798512153695403E-001,-1.628796279795353E-001,
1.944056800000000E+009,-8.529881118363519E-001,2.578682855904797E-001,
1.953056600000000E+009,-6.371849317156118E-001,6.190738983817158E-001,
1.962056400000000E+009,-2.794538784719741E-001,8.384395456209267E-001,
1.971056200000000E+009,1.372524613437231E-001,8.695170227441897E-001,
1.980056000000000E+009,5.214771781611056E-001,7.065954165754147E-001,
1.989055800000000E+009,7.889868686911566E-001,3.872260833143303E-001,
1.998055600000000E+009,8.802942721411707E-001,-2.010835614533379E-002,
2.007055400000000E+009,7.746901611421174E-001,-4.251996242788124E-001,
2.016055200000000E+009,4.955947480304909E-001,-7.371354413896393E-001,
2.025055000000000E+009,1.024161726061454E-001,-8.858638912524853E-001,
2.034054800000000E+009,-3.154010237916064E-001,-8.370471750993818E-001,
2.043054600000000E+009,-6.630132359941523E-001,-6.018284663532207E-001,
2.052054400000000E+009,-8.638097685411088E-001,-2.321578795096070E-001,
2.061054200000000E+009,-8.715127100240676E-001,1.860100357944612E-001,
2.070054000000000E+009,-6.871119824318746E-001,5.608737257134333E-001,
2.079053800000000E+009,-3.525788222303306E-001,8.092146125058392E-001,
2.088053600000000E+009,5.803593212261805E-002,8.756841627973757E-001,
2.097053400000000E+009,4.544147902059609E-001,7.484199525443375E-001,
2.106053200000000E+009,7.480007985504698E-001,4.531892094549898E-001,
2.115053000000000E+009,8.737962104089146E-001,5.506599132189931E-002,
2.124052800000000E+009,8.027101854938489E-001,-3.567601013638608E-001,
2.133052600000000E+009,5.493321263513578E-001,-6.907733860660816E-001,
2.142052400000000E+009,1.708881555546490E-001,-8.705773714395425E-001,
2.151052200000000E+009,-2.483558764508484E-001,-8.551170039935967E-001,
2.160052000000000E+009,-6.126576892957695E-001,-6.480567110945860E-001,
2.169051800000000E+009,-8.411813321761612E-001,-2.972540941747855E-001,
2.178051600000000E+009,-8.812766275576677E-001,1.184845253522844E-001,
2.187051400000000E+009,-7.262459529636750E-001,5.067391124118238E-001,
2.196051200000000E+009,-4.102454904420420E-001,7.788445590212076E-001,
2.205051000000000E+009,-5.250075027499673E-003,8.756361889207199E-001,
2.214050800000000E+009,3.995119398962944E-001,7.752484620386210E-001,
2.223050600000000E+009,7.121870475912930E-001,4.987364345418918E-001,
2.232050400000000E+009,8.632210790757353E-001,1.106817410223775E-001,
2.241050200000000E+009,8.178157456313248E-001,-3.023379578450951E-001,
2.250050000000000E+009,5.881384577075072E-001,-6.501400588108256E-001,
2.259049800000000E+009,2.250241954613677E-001,-8.520643727948173E-001,
2.268049600000000E+009,-1.886024688821831E-001,-8.649306211776024E-001,
2.277049400000000E+009,-5.627590943426558E-001,-6.870851081098088E-001,
2.286049200000000E+009,-8.141414766548398E-001,-3.569096435178362E-001,
2.295049000000000E+009,-8.858387263626324E-001,5.069586669350785E-002,
2.304048800000000E+009,-7.626434563496117E-001,4.464960012521501E-001,
2.313048600000000E+009,-4.712828452626229E-001,7.418163840144149E-001,
2.322048400000000E+009,-7.493028428208369E-002,8.698647908487297E-001,
2.331048200000000E+009,3.359999113294097E-001,8.009406487033874E-001,
2.340048000000000E+009,6.692347061718108E-001,5.488226271478887E-001,
2.349047800000000E+009,8.480222052732482E-001,1.708840220044448E-001,
2.358047600000000E+009,8.317690960694053E-001,-2.452568206054973E-001,
2.367047400000000E+009,6.249080279784415E-001,-6.064419086707249E-001,
2.376047200000000E+009,2.771845295132370E-001,-8.311439165887740E-001,
2.385047000000000E+009,-1.332694310082451E-001,-8.712610980284984E-001,
2.394046800000000E+009,-5.148436089948753E-001,-7.187054133438436E-001,
2.403046600000000E+009,-7.845134505455059E-001,-4.105930910061909E-001,
2.412046400000000E+009,-8.848142057206746E-001,-1.472125285180112E-002,
2.421046200000000E+009,-7.941364919836652E-001,3.841222579263024E-001,
2.430046000000000E+009,-5.294651905381623E-001,6.983495892343021E-001,
2.439045800000000E+009,-1.498159137708727E-001,8.577024236476927E-001,
2.448045600000000E+009,2.614037836221715E-001,8.237929281553317E-001,
2.457045400000000E+009,6.133612520671591E-001,6.050140262385385E-001,
2.466045200000000E+009,8.247838236897589E-001,2.447482001737081E-001,
2.475045000000000E+009,8.436437511618643E-001,-1.731448013659656E-001,
2.484044800000000E+009,6.651909642721471E-001,-5.505021721430088E-001,
2.493044600000000E+009,3.345030273713585E-001,-8.017034593533184E-001,
2.502044400000000E+009,-7.620952151011842E-002,-8.703785343513324E-001,
2.511044200000000E+009,-4.687569825099393E-001,-7.427540374151826E-001,
