% Version 1.00
%
%freq[Hz] re:Trc1_S11 im:Trc1_S11 
1.098633000000000E+006,-4.178141594119627E-003,-8.923258929785787E-004,
2.197265812454213E+006,-4.437154598998541E-003,-2.730446061787501E-003,
3.295898624908425E+006,-4.239827890071445E-003,-3.778829470057373E-003,
4.394531437362637E+006,-4.384270955593937E-003,-6.179698809549295E-003,
5.493164249816850E+006,-5.207461737329997E-003,-7.823165476169873E-003,
6.591797062271062E+006,-6.027042802742735E-003,-9.704452629465373E-003,
7.690429874725275E+006,-7.071632989089992E-003,-1.097236764427662E-002,
8.789062687179487E+006,-8.499586342505224E-003,-1.258381829798788E-002,
9.887695499633700E+006,-1.003897656001404E-002,-1.403841622100339E-002,
1.098632831208791E+007,-1.214058366876596E-002,-1.500170713885145E-002,
1.208496112454213E+007,-1.411254616312819E-002,-1.647636482826401E-002,
1.318359393699634E+007,-1.626883749824155E-002,-1.729120810551512E-002,
1.428222674945055E+007,-1.818665536662749E-002,-1.792251837978633E-002,
1.538085956190476E+007,-2.065302772139106E-002,-1.842623532820295E-002,
1.647949237435897E+007,-2.349571511532742E-002,-1.888486445240565E-002,
1.757812518681319E+007,-2.590812449157476E-002,-1.875887735710266E-002,
1.867675799926740E+007,-2.868594992274381E-002,-1.870120539294635E-002,
1.977539081172161E+007,-3.155728718623055E-002,-1.811174662909176E-002,
2.087402362417582E+007,-3.430927952034259E-002,-1.782619757251429E-002,
2.197265643663004E+007,-3.704076026929098E-002,-1.699004707452300E-002,
2.307128924908425E+007,-3.987539079678763E-002,-1.617538758312467E-002,
2.416992206153846E+007,-4.330698847608092E-002,-1.428703384418615E-002,
2.526855487399267E+007,-4.561094173967921E-002,-1.265793637344744E-002,
2.636718768644689E+007,-4.866771584877685E-002,-1.067135627188291E-002,
2.746582049890110E+007,-5.146417373998222E-002,-8.398928789130367E-003,
2.856445331135531E+007,-5.390140904236489E-002,-6.393030079168249E-003,
2.966308612380952E+007,-5.628793861175024E-002,-3.951635410661836E-003,
3.076171893626374E+007,-5.898768704941087E-002,-9.751488704087866E-004,
3.186035174871795E+007,-6.124149684023528E-002,2.444354908616600E-003,
3.295898456117216E+007,-6.348827349851659E-002,5.565361701330519E-003,
3.405761737362637E+007,-6.534067426871144E-002,9.500580181943609E-003,
3.515625018608059E+007,-6.717318426578292E-002,1.320282448317575E-002,
3.625488299853480E+007,-6.852659449714665E-002,1.740953718602877E-002,
3.735351581098901E+007,-6.951712138405852E-002,2.155917787730000E-002,
3.845214862344322E+007,-7.076269658152892E-002,2.582560711751867E-002,
3.955078143589744E+007,-7.121553667406247E-002,3.038019156761232E-002,
4.064941424835165E+007,-7.191489897893953E-002,3.527925838018253E-002,
4.174804706080586E+007,-7.162682561697391E-002,3.976039862615503E-002,
4.284667987326007E+007,-7.173560477010325E-002,4.502789527193765E-002,
4.394531268571429E+007,-7.160937421054019E-002,4.967415959093365E-002,
4.504394549816850E+007,-7.059222806813177E-002,5.497807330155440E-002,
4.614257831062271E+007,-6.945822170020237E-002,5.993123721238832E-002,
4.724121112307692E+007,-6.785059037573908E-002,6.483775840420694E-002,
4.833984393553114E+007,-6.629630014811951E-002,6.986859028782315E-002,
4.943847674798535E+007,-6.396505894809314E-002,7.464155098115113E-002,
5.053710956043956E+007,-6.158459266963276E-002,7.992470124240229E-002,
5.163574237289377E+007,-5.884416740179095E-002,8.490425597443432E-002,
5.273437518534799E+007,-5.572698435831442E-002,8.943400919007105E-002,
5.383300799780220E+007,-5.233137771984758E-002,9.414003220727943E-002,
5.493164081025641E+007,-4.854240689342215E-002,9.877245801685144E-002,
5.603027362271062E+007,-4.427629626638617E-002,1.029232466331748E-001,
5.712890643516484E+007,-3.977708997424490E-002,1.071835130331093E-001,
5.822753924761905E+007,-3.514309474533262E-002,1.111929577048072E-001,
5.932617206007326E+007,-2.998036567394175E-002,1.150487139366229E-001,
6.042480487252747E+007,-2.478266136016581E-002,1.182077673142883E-001,
6.152343768498169E+007,-1.912867228609613E-002,1.214489691922072E-001,
6.262207049743590E+007,-1.334547495197049E-002,1.244529456516565E-001,
6.372070330989011E+007,-7.280907669256174E-003,1.268817895910219E-001,
6.481933612234432E+007,-1.117368888159209E-003,1.292762811543785E-001,
6.591796893479854E+007,5.349028911229204E-003,1.312623527222007E-001,
6.701660174725275E+007,1.237374766171043E-002,1.328662919738052E-001,
6.811523455970696E+007,1.913249247267220E-002,1.339113505253234E-001,
6.921386737216118E+007,2.641104201023857E-002,1.347935676019147E-001,
7.031250018461539E+007,3.343097146321975E-002,1.349738356476569E-001,
7.141113299706960E+007,4.068067466011077E-002,1.351661867159462E-001,
7.250976580952381E+007,4.757950427220851E-002,1.345449883459165E-001,
7.360839862197802E+007,5.529933360233643E-002,1.338662842969225E-001,
7.470703143443224E+007,6.249090411904663E-002,1.325792537261851E-001,
7.580566424688645E+007,7.017014130759713E-002,1.307821719734852E-001,
7.690429705934066E+007,7.718508888727781E-002,1.283624806117895E-001,
7.800292987179488E+007,8.405159746415554E-002,1.255468522709052E-001,
7.910156268424909E+007,9.165018295095237E-002,1.225135890788477E-001,
8.020019549670330E+007,9.866818072463336E-002,1.191012116544528E-001,
8.129882830915751E+007,1.054589305098869E-001,1.151896268591111E-001,
8.239746112161171E+007,1.123218370674940E-001,1.109855257217442E-001,
8.349609393406594E+007,1.191979529120957E-001,1.060706753877806E-001,
8.459472674652015E+007,1.248327919703343E-001,1.005064035784358E-001,
8.569335955897436E+007,1.312320851298136E-001,9.529982403696941E-002,
8.679199237142858E+007,1.369405749363849E-001,8.919301241053292E-002,
8.789062518388279E+007,1.422886672348640E-001,8.258613231671022E-002,
8.898925799633700E+007,1.474372627572865E-001,7.590705069901116E-002,
9.008789080879121E+007,1.521482790968006E-001,6.905890075004326E-002,
9.118652362124541E+007,1.567264330277959E-001,6.130197200733011E-002,
9.228515643369964E+007,1.606030968438576E-001,5.340647407812655E-002,
9.338378924615385E+007,1.641150170723377E-001,4.554516875926186E-002,
9.448242205860806E+007,1.676396049415915E-001,3.725530252301483E-002,
9.558105487106228E+007,1.703360897296413E-001,2.877992682990696E-002,
9.667968768351649E+007,1.731000910368333E-001,1.994728113080061E-002,
9.777832049597070E+007,1.744214286947925E-001,1.080490971316285E-002,
9.887695330842491E+007,1.757528842951976E-001,1.801873276433449E-003,
9.997558612087911E+007,1.763730800378261E-001,-7.409464281916025E-003,
1.010742189333333E+008,1.767159827031615E-001,-1.663495146246962E-002,
1.021728517457876E+008,1.766475174277130E-001,-2.648123091445084E-002,
1.032714845582418E+008,1.759471597253182E-001,-3.593793936525104E-002,
1.043701173706960E+008,1.743349144517443E-001,-4.512891484491590E-002,
1.054687501831502E+008,1.728138219166407E-001,-5.471086161888217E-002,
1.065673829956044E+008,1.703868109947320E-001,-6.428274887476615E-002,
1.076660158080586E+008,1.673596898356709E-001,-7.384375061116301E-002,
1.087646486205128E+008,1.639501797617104E-001,-8.270455468169992E-002,
1.098632814329670E+008,1.600487952327450E-001,-9.198814171843665E-002,
1.109619142454213E+008,1.546547684928806E-001,-1.009234976562991E-001,
1.120605470578755E+008,1.500460447344816E-001,-1.100305574878775E-001,
1.131591798703297E+008,1.443851738089156E-001,-1.183622882940794E-001,
1.142578126827839E+008,1.378245004683477E-001,-1.264996168657957E-001,
1.153564454952381E+008,1.317617969617613E-001,-1.345520776076483E-001,
1.164550783076923E+008,1.242105870020239E-001,-1.422200697992249E-001,
1.175537111201465E+008,1.165855110905722E-001,-1.495111240798900E-001,
1.186523439326007E+008,1.088153078767845E-001,-1.564933193291266E-001,
1.197509767450550E+008,1.000677751760249E-001,-1.625222305154807E-001,
1.208496095575092E+008,9.108098543462288E-002,-1.687319450004573E-001,
1.219482423699634E+008,8.189737798685165E-002,-1.749502379787060E-001,
1.230468751824176E+008,7.255285671314882E-002,-1.792219145775171E-001,
1.241455079948718E+008,6.240516005238550E-002,-1.841094534742002E-001,
1.252441408073260E+008,5.211667484022782E-002,-1.881899611901834E-001,
1.263427736197802E+008,4.145456945431882E-002,-1.916879580731392E-001,
1.274414064322344E+008,3.112836094096100E-002,-1.945468572106298E-001,
1.285400392446887E+008,1.994948060379448E-002,-1.966571346434846E-001,
1.296386720571429E+008,8.735151783535029E-003,-1.986195198749208E-001,
1.307373048695971E+008,-2.751419565857766E-003,-1.994069933345992E-001,
1.318359376820513E+008,-1.396398477320128E-002,-2.002108708627657E-001,
1.329345704945055E+008,-2.573769303929048E-002,-2.000012895726337E-001,
1.340332033069597E+008,-3.723752980771125E-002,-1.990468357575385E-001,
1.351318361194139E+008,-4.814177048005632E-002,-1.982987881085851E-001,
1.362304689318681E+008,-6.008002762842116E-002,-1.957550856699643E-001,
1.373291017443224E+008,-7.118182131912235E-002,-1.932847139286675E-001,
1.384277345567766E+008,-8.287818523669550E-002,-1.899822223594948E-001,
1.395263673692308E+008,-9.429433703370412E-002,-1.862353037323386E-001,
1.406250001816850E+008,-1.049172124188316E-001,-1.817046673983901E-001,
1.417236329941392E+008,-1.156910153853793E-001,-1.761678159966899E-001,
1.428222658065934E+008,-1.262234551601040E-001,-1.704449886692886E-001,
1.439208986190476E+008,-1.366376559626118E-001,-1.644297250398556E-001,
1.450195314315018E+008,-1.468469988956682E-001,-1.575685301021432E-001,
1.461181642439560E+008,-1.558693794494021E-001,-1.498599679489617E-001,
1.472167970564103E+008,-1.653699806127375E-001,-1.420216831112386E-001,
1.483154298688645E+008,-1.739124400129512E-001,-1.337339273136566E-001,
1.494140626813187E+008,-1.825745580719978E-001,-1.249222319832909E-001,
1.505126954937729E+008,-1.902277651841100E-001,-1.150280238634320E-001,
1.516113283062271E+008,-1.976781426308377E-001,-1.050476159060307E-001,
1.527099611186813E+008,-2.047718130799512E-001,-9.470894647482725E-002,
1.538085939311355E+008,-2.109734364635333E-001,-8.371087212444574E-002,
1.549072267435898E+008,-2.166901370810696E-001,-7.291651144759899E-002,
1.560058595560440E+008,-2.221523957393862E-001,-6.168074220217732E-002,
1.571044923684982E+008,-2.263688840671833E-001,-4.951534644940014E-002,
1.582031251809524E+008,-2.304207593244432E-001,-3.782993288638203E-002,
1.593017579934066E+008,-2.337972813180722E-001,-2.550005369249463E-002,
1.604003908058608E+008,-2.366095708847327E-001,-1.340416268215531E-002,
1.614990236183150E+008,-2.384212492178243E-001,-6.239532842042621E-004,
1.625976564307692E+008,-2.397269318580616E-001,1.161931978201982E-002,
1.636962892432234E+008,-2.403772574734620E-001,2.504762490851911E-002,
1.647949220556777E+008,-2.402807706002719E-001,3.721500620327625E-002,
1.658935548681319E+008,-2.393076943297644E-001,5.011182540028231E-002,
1.669921876805861E+008,-2.380635524314976E-001,6.281359146060292E-002,
1.680908204930403E+008,-2.359287587855077E-001,7.559096897858024E-002,
1.691894533054945E+008,-2.330823089482451E-001,8.815635200815021E-002,
1.702880861179487E+008,-2.302512570830856E-001,1.008497419904858E-001,
1.713867189304029E+008,-2.259546195998364E-001,1.126124305060732E-001,
1.724853517428572E+008,-2.211903395434458E-001,1.248825727202912E-001,
1.735839845553114E+008,-2.158815370231821E-001,1.366219212847958E-001,
1.746826173677656E+008,-2.099945602163615E-001,1.479007291033041E-001,
1.757812501802198E+008,-2.032519638226882E-001,1.594960587114537E-001,
1.768798829926740E+008,-1.965444736339327E-001,1.695738828278879E-001,
1.779785158051282E+008,-1.887029450965403E-001,1.808354323207748E-001,
1.790771486175824E+008,-1.804617423325446E-001,1.905330887299346E-001,
1.801757814300366E+008,-1.717230198514757E-001,2.002600475956227E-001,
1.812744142424908E+008,-1.621953212195947E-001,2.091728934669845E-001,
1.823730470549451E+008,-1.526169991888542E-001,2.176702263859874E-001,
1.834716798673993E+008,-1.422065976967938E-001,2.256450655937847E-001,
1.845703126798535E+008,-1.321835333072989E-001,2.331738631561450E-001,
1.856689454923077E+008,-1.210139752371541E-001,2.400958892252413E-001,
1.867675783047619E+008,-1.099246852221512E-001,2.464778394620471E-001,
1.878662111172161E+008,-9.782859760402610E-002,2.522560889783144E-001,
1.889648439296703E+008,-8.607988147759343E-002,2.576448885156716E-001,
1.900634767421246E+008,-7.405458953374637E-002,2.618555049179810E-001,
1.911621095545788E+008,-6.177080798082276E-002,2.660635977191083E-001,
1.922607423670330E+008,-4.903494431477044E-002,2.693130263324082E-001,
1.933593751794872E+008,-3.637835407074525E-002,2.719823150388126E-001,
1.944580079919414E+008,-2.358764298031895E-002,2.737385819367997E-001,
1.955566408043956E+008,-1.033597287954531E-002,2.747225302696412E-001,
1.966552736168498E+008,2.390556863382393E-003,2.755232070330695E-001,
1.977539064293040E+008,1.535504740032190E-002,2.753827870101009E-001,
1.988525392417582E+008,2.834125914922755E-002,2.746190387703159E-001,
1.999511720542125E+008,4.147238766693531E-002,2.730159219907844E-001,
2.010498048666667E+008,5.411849448559183E-002,2.706651191253773E-001,
2.021484376791209E+008,6.689850698665670E-002,2.678333124557687E-001,
2.032470704915751E+008,7.916238046230209E-002,2.641080752279003E-001,
2.043457033040293E+008,9.145061435753152E-002,2.603625153265058E-001,
2.054443361164835E+008,1.035932650381824E-001,2.551895972332692E-001,
2.065429689289377E+008,1.151248876195139E-001,2.500380431533033E-001,
2.076416017413920E+008,1.267777422030455E-001,2.437743452649557E-001,
2.087402345538462E+008,1.377109841234799E-001,2.371620533006716E-001,
2.098388673663004E+008,1.487085480993010E-001,2.303074405707098E-001,
2.109375001787546E+008,1.589640000428362E-001,2.222592354022220E-001,
2.120361329912088E+008,1.690979954391449E-001,2.139429633306638E-001,
2.131347658036630E+008,1.784515764484565E-001,2.051215697203460E-001,
2.142333986161172E+008,1.873090337150478E-001,1.957251536477879E-001,
2.153320314285714E+008,1.956483628909155E-001,1.859613467435681E-001,
2.164306642410256E+008,2.034390823801818E-001,1.756376493279725E-001,
2.175292970534799E+008,2.111545808255615E-001,1.651762846021392E-001,
2.186279298659341E+008,2.178223542071643E-001,1.546014668370573E-001,
2.197265626783883E+008,2.236696578321369E-001,1.430609471271927E-001,
2.208251954908425E+008,2.288348181944652E-001,1.315945825333087E-001,
2.219238283032967E+008,2.342873615560430E-001,1.195849627375719E-001,
2.230224611157509E+008,2.386628463460666E-001,1.076987266840709E-001,
2.241210939282051E+008,2.422751454466166E-001,9.497718053803873E-002,
2.252197267406594E+008,2.449839464982735E-001,8.232455151560698E-002,
2.263183595531136E+008,2.475490344547087E-001,7.001501759605430E-002,
2.274169923655678E+008,2.490548680548996E-001,5.708898775759726E-002,
2.285156251780220E+008,2.499788415081094E-001,4.434444634867459E-002,
2.296142579904762E+008,2.503737535999807E-001,3.180734271079379E-002,
2.307128908029304E+008,2.496704354717457E-001,1.843197756145323E-002,
2.318115236153846E+008,2.485350421828188E-001,5.984653403758269E-003,
2.329101564278388E+008,2.469947304221345E-001,-6.820381373720957E-003,
2.340087892402930E+008,2.446533531112319E-001,-1.890813392122620E-002,
2.351074220527473E+008,2.408362486682160E-001,-3.114306922121728E-002,
2.362060548652015E+008,2.373470128651966E-001,-4.350058409782662E-002,
2.373046876776557E+008,2.323147738023325E-001,-5.534925410593359E-002,
2.384033204901099E+008,2.277308633934709E-001,-6.699256054882892E-002,
2.395019533025641E+008,2.217399860915745E-001,-7.833981008875872E-002,
2.406005861150183E+008,2.152919752711147E-001,-8.908034458180578E-002,
2.416992189274725E+008,2.085125620819950E-001,-9.968739392149455E-002,
2.427978517399268E+008,2.010428280520541E-001,-1.097892185864200E-001,
2.438964845523810E+008,1.931242032838826E-001,-1.195168837086495E-001,
2.449951173648352E+008,1.844632002601710E-001,-1.288132117826983E-001,
2.460937501772894E+008,1.752621589639602E-001,-1.374486665308144E-001,
2.471923829897436E+008,1.661914455197039E-001,-1.458380172195981E-001,
2.482910158021978E+008,1.566642219129805E-001,-1.533257660195460E-001,
2.493896486146520E+008,1.462198696153409E-001,-1.607053354652389E-001,
2.504882814271062E+008,1.356049534120054E-001,-1.670344700105811E-001,
2.515869142395604E+008,1.244411042123858E-001,-1.734961625204803E-001,
2.526855470520147E+008,1.134177335405398E-001,-1.787674628860963E-001,
2.537841798644689E+008,1.022298811575242E-001,-1.832243008983822E-001,
2.548828126769231E+008,9.027669392988620E-002,-1.874603825507446E-001,
2.559814454893773E+008,7.831847115654095E-002,-1.906370564720669E-001,
2.570800783018315E+008,6.677554890857587E-002,-1.937762799657859E-001,
2.581787111142857E+008,5.517147367323252E-002,-1.956792894502856E-001,
2.592773439267399E+008,4.242158996157578E-002,-1.973704453423594E-001,
2.603759767391942E+008,3.042422634704042E-002,-1.977835221772177E-001,
2.614746095516484E+008,1.841701615464655E-002,-1.981754382721034E-001,
2.625732423641026E+008,6.272007991273261E-003,-1.974293496759768E-001,
2.636718751765568E+008,-5.267819510010696E-003,-1.964515613474593E-001,
2.647705079890110E+008,-1.764466709865694E-002,-1.945016386299218E-001,
2.658691408014652E+008,-2.924066402689706E-002,-1.920889752590964E-001,
2.669677736139194E+008,-4.033394240399475E-002,-1.891807052716841E-001,
2.680664064263736E+008,-5.190677762519298E-002,-1.854437968744379E-001,
2.691650392388278E+008,-6.310834300296907E-002,-1.809174032996847E-001,
2.702636720512821E+008,-7.344473831756368E-002,-1.764262592277068E-001,
2.713623048637363E+008,-8.405691478839261E-002,-1.709977539623850E-001,
2.724609376761905E+008,-9.409981477356860E-002,-1.649369441663922E-001,
2.735595704886447E+008,-1.036341589106464E-001,-1.584566801480480E-001,
2.746582033010989E+008,-1.132197195445915E-001,-1.517057630325107E-001,
2.757568361135531E+008,-1.220420937508238E-001,-1.447394719429072E-001,
2.768554689260073E+008,-1.301460034162708E-001,-1.364201034748140E-001,
2.779541017384616E+008,-1.380382415749420E-001,-1.284674004745603E-001,
2.790527345509158E+008,-1.453401729224370E-001,-1.195940181361625E-001,
2.801513673633699E+008,-1.525368765445962E-001,-1.106207973422053E-001,
2.812500001758242E+008,-1.586947311443352E-001,-1.015942866494667E-001,
2.823486329882784E+008,-1.645948644293640E-001,-9.236100048767165E-002,
2.834472658007326E+008,-1.699681358942583E-001,-8.245678712138556E-002,
2.845458986131868E+008,-1.747196032826354E-001,-7.271838376313447E-002,
2.856445314256410E+008,-1.784694338913953E-001,-6.270894023854515E-002,
2.867431642380952E+008,-1.824176396370230E-001,-5.209746286823985E-002,
2.878417970505495E+008,-1.854167812029593E-001,-4.216264404771063E-002,
2.889404298630037E+008,-1.878205313970825E-001,-3.193710140154253E-002,
2.900390626754579E+008,-1.898582996134966E-001,-2.139073124397209E-002,
2.911376954879121E+008,-1.908223263468881E-001,-1.080913744192963E-002,
2.922363283003663E+008,-1.916402269726374E-001,-6.888553153004369E-004,
2.933349611128205E+008,-1.918793793269746E-001,9.958755322514494E-003,
2.944335939252747E+008,-1.914009437913745E-001,2.022907624148507E-002,
2.955322267377290E+008,-1.907094315014665E-001,3.040912702023275E-002,
2.966308595501832E+008,-1.891395249869209E-001,4.058587248506249E-002,
2.977294923626373E+008,-1.871481326858261E-001,5.050698190490551E-002,
2.988281251750916E+008,-1.848059960986387E-001,5.994192765296450E-002,
2.999267579875458E+008,-1.824131029768435E-001,6.954686146541114E-002,
3.010253908000000E+008,-1.788295931710633E-001,7.878755257025683E-002,
3.021240236124542E+008,-1.745711778746918E-001,8.721543814099095E-002,
3.032226564249084E+008,-1.705343897138733E-001,9.614291263659813E-002,
3.043212892373626E+008,-1.659407357681117E-001,1.046508567134503E-001,
3.054199220498169E+008,-1.608172518718249E-001,1.122841455063070E-001,
3.065185548622711E+008,-1.555259244866252E-001,1.200443971222185E-001,
3.076171876747253E+008,-1.498953739427797E-001,1.275276838448481E-001,
